Frequency (Hz),Power (dB),44100.0000,2048,0,2.0000,0,L+R
0.00,-44.08
21.53,-43.14
43.07,-43.45
64.60,-43.06
86.13,-42.91
107.67,-43.06
129.20,-43.06
150.73,-42.83
172.27,-42.28
193.80,-43.06
215.33,-42.83
236.87,-42.05
258.40,-42.75
279.93,-43.45
301.46,-42.28
323.00,-43.30
344.53,-43.14
366.06,-42.36
387.60,-42.28
409.13,-42.98
430.66,-42.75
452.20,-43.45
473.73,-42.52
495.26,-42.67
516.80,-42.83
538.33,-41.58
559.86,-42.28
581.40,-43.06
602.93,-43.22
624.46,-44.00
646.00,-42.52
667.53,-42.67
689.06,-43.53
710.60,-42.75
732.13,-42.44
753.66,-41.50
775.20,-41.73
796.73,-41.97
818.26,-42.05
839.79,-42.59
861.33,-42.83
882.86,-42.28
904.39,-42.12
925.93,-42.83
947.46,-42.59
968.99,-42.52
990.53,-42.05
1012.06,-42.20
1033.59,-42.75
1055.13,-43.53
1076.66,-43.45
1098.19,-42.36
1119.73,-41.97
1141.26,-42.75
1162.79,-42.98
1184.33,-43.61
1205.86,-43.92
1227.39,-44.39
1248.93,-42.98
1270.46,-41.97
1291.99,-42.52
1313.53,-42.28
1335.06,-41.81
1356.59,-41.81
1378.13,-42.59
1399.66,-42.83
1421.19,-44.00
1442.72,-43.06
1464.26,-42.83
1485.79,-42.44
1507.32,-42.91
1528.86,-43.92
1550.39,-43.14
1571.92,-43.77
1593.46,-43.77
1614.99,-43.30
1636.52,-43.14
1658.06,-43.30
1679.59,-42.91
1701.12,-43.14
1722.66,-43.30
1744.19,-43.30
1765.72,-42.75
1787.26,-43.06
1808.79,-42.36
1830.32,-43.61
1851.86,-44.00
1873.39,-42.98
1894.92,-42.20
1916.46,-42.67
1937.99,-43.14
1959.52,-43.77
1981.05,-42.98
2002.59,-43.84
2024.12,-43.84
2045.65,-43.69
2067.19,-42.91
2088.72,-42.52
2110.25,-44.47
2131.79,-44.31
2153.32,-43.30
2174.85,-43.45
2196.39,-43.45
2217.92,-44.08
2239.45,-44.31
2260.99,-42.59
2282.52,-42.36
2304.05,-43.53
2325.59,-43.69
2347.12,-43.06
2368.65,-42.91
2390.19,-42.83
2411.72,-43.30
2433.25,-44.00
2454.79,-43.14
2476.32,-42.28
2497.85,-43.22
2519.38,-43.45
2540.92,-42.28
2562.45,-43.37
2583.98,-43.22
2605.52,-43.14
2627.05,-43.84
2648.58,-43.53
2670.12,-42.83
2691.65,-42.59
2713.18,-42.67
2734.72,-42.28
2756.25,-42.28
2777.78,-42.44
2799.32,-44.16
2820.85,-44.70
2842.38,-43.30
2863.92,-42.67
2885.45,-43.77
2906.98,-44.31
2928.52,-43.22
2950.05,-43.77
2971.58,-43.14
2993.12,-42.83
3014.65,-42.91
3036.18,-42.52
3057.71,-42.52
3079.25,-42.91
3100.78,-43.53
3122.31,-43.22
3143.85,-42.36
3165.38,-42.12
3186.91,-41.81
3208.45,-41.73
3229.98,-44.31
3251.51,-43.45
3273.05,-41.66
3294.58,-42.20
3316.11,-42.75
3337.65,-42.98
3359.18,-42.98
3380.71,-42.44
3402.25,-43.30
3423.78,-43.37
3445.31,-43.84
3466.85,-43.61
3488.38,-43.22
3509.91,-42.91
3531.45,-44.08
3552.98,-43.69
3574.51,-43.22
3596.04,-41.97
3617.58,-42.28
3639.11,-42.83
3660.64,-43.53
3682.18,-44.00
3703.71,-43.53
3725.24,-43.22
3746.78,-44.55
3768.31,-43.45
3789.84,-42.52
3811.38,-43.77
3832.91,-43.69
3854.44,-44.08
3875.98,-43.84
3897.51,-42.75
3919.04,-43.69
3940.58,-42.91
3962.11,-43.22
3983.64,-44.55
4005.18,-44.39
4026.71,-44.55
4048.24,-44.16
4069.78,-42.59
4091.31,-42.20
4112.84,-42.75
4134.38,-42.75
4155.91,-43.06
4177.44,-44.16
4198.97,-43.53
4220.51,-42.44
4242.04,-43.14
4263.57,-43.61
4285.11,-43.77
4306.64,-42.98
4328.17,-43.06
4349.71,-43.30
4371.24,-42.91
4392.77,-42.12
4414.31,-41.97
4435.84,-42.20
4457.37,-43.45
4478.91,-43.37
4500.44,-42.91
4521.97,-42.98
4543.51,-44.08
4565.04,-43.53
4586.57,-42.98
4608.11,-42.98
4629.64,-44.23
4651.17,-42.52
4672.71,-42.44
4694.24,-43.06
4715.77,-43.53
4737.30,-43.45
4758.84,-42.98
4780.37,-41.97
4801.90,-43.37
4823.44,-44.08
4844.97,-42.59
4866.50,-42.20
4888.04,-42.91
4909.57,-42.44
4931.10,-42.75
4952.64,-42.91
4974.17,-43.92
4995.70,-42.91
5017.24,-42.98
5038.77,-43.22
5060.30,-42.44
5081.84,-44.78
5103.37,-43.14
5124.90,-42.91
5146.44,-42.75
5167.97,-43.14
5189.50,-43.84
5211.04,-43.61
5232.57,-42.67
5254.10,-43.14
5275.63,-43.45
5297.17,-43.37
5318.70,-43.69
5340.23,-42.28
5361.77,-42.44
5383.30,-43.84
5404.83,-44.08
5426.37,-43.14
5447.90,-42.36
5469.43,-42.44
5490.97,-43.14
5512.50,-42.67
5534.03,-42.75
5555.57,-42.83
5577.10,-43.53
5598.63,-43.45
5620.17,-43.53
5641.70,-43.06
5663.23,-42.83
5684.77,-43.53
5706.30,-42.67
5727.83,-41.73
5749.37,-43.37
5770.90,-42.28
5792.43,-43.06
5813.96,-43.06
5835.50,-43.06
5857.03,-42.75
5878.56,-42.59
5900.10,-43.22
5921.63,-42.75
5943.16,-43.06
5964.70,-43.77
5986.23,-43.61
6007.76,-44.78
6029.30,-44.47
6050.83,-43.61
6072.36,-42.91
6093.90,-43.22
6115.43,-43.30
6136.96,-42.44
6158.50,-43.53
6180.03,-43.30
6201.56,-42.59
6223.10,-43.45
6244.63,-43.77
6266.16,-43.92
6287.70,-43.53
6309.23,-43.14
6330.76,-43.14
6352.29,-42.28
6373.83,-42.20
6395.36,-42.36
6416.89,-42.83
6438.43,-42.91
6459.96,-43.14
6481.49,-44.00
6503.03,-44.78
6524.56,-43.77
6546.09,-43.14
6567.63,-43.45
6589.16,-43.84
6610.69,-43.14
6632.23,-42.91
6653.76,-43.69
6675.29,-42.75
6696.83,-42.98
6718.36,-43.45
6739.89,-43.69
6761.43,-43.53
6782.96,-42.91
6804.49,-44.16
6826.03,-43.92
6847.56,-42.91
6869.09,-42.59
6890.63,-42.83
6912.16,-43.45
6933.69,-42.98
6955.22,-42.67
6976.76,-43.22
6998.29,-42.91
7019.82,-43.14
7041.36,-43.14
7062.89,-43.30
7084.42,-43.37
7105.96,-42.20
7127.49,-42.28
7149.02,-42.98
7170.56,-43.92
7192.09,-43.30
7213.62,-42.05
7235.16,-42.83
7256.69,-43.84
7278.22,-42.59
7299.76,-42.44
7321.29,-42.67
7342.82,-43.53
7364.36,-44.39
7385.89,-43.84
7407.42,-43.06
7428.96,-43.61
7450.49,-42.52
7472.02,-43.77
7493.55,-44.70
7515.09,-43.92
7536.62,-44.00
7558.15,-44.31
7579.69,-43.37
7601.22,-43.30
7622.75,-43.14
7644.29,-43.37
7665.82,-44.47
7687.35,-43.30
7708.89,-42.28
7730.42,-41.66
7751.95,-42.59
7773.49,-43.14
7795.02,-43.45
7816.55,-42.28
7838.09,-42.91
7859.62,-43.84
7881.15,-43.06
7902.69,-42.52
7924.22,-43.45
7945.75,-42.91
7967.29,-43.84
7988.82,-43.61
8010.35,-43.30
8031.88,-43.53
8053.42,-43.37
8074.95,-42.59
8096.48,-42.98
8118.02,-43.61
8139.55,-43.77
8161.08,-44.86
8182.62,-43.92
8204.15,-42.91
8225.68,-43.22
8247.22,-43.37
8268.75,-43.06
8290.28,-43.84
8311.82,-43.37
8333.35,-42.05
8354.88,-42.83
8376.42,-42.28
8397.95,-41.73
8419.48,-42.36
8441.02,-42.91
8462.55,-43.22
8484.08,-43.22
8505.62,-44.16
8527.15,-42.75
8548.68,-42.59
8570.21,-42.59
8591.75,-42.44
8613.28,-42.28
8634.81,-42.75
8656.35,-44.16
8677.88,-43.92
8699.41,-42.83
8720.95,-42.05
8742.48,-42.12
8764.01,-42.52
8785.55,-42.91
8807.08,-43.61
8828.61,-43.77
8850.15,-42.20
8871.68,-42.36
8893.21,-43.84
8914.75,-43.45
8936.28,-42.91
8957.81,-43.14
8979.35,-42.59
9000.88,-42.98
9022.41,-43.92
9043.95,-42.91
9065.48,-42.75
9087.01,-42.44
9108.54,-42.44
9130.08,-43.06
9151.61,-42.83
9173.14,-42.44
9194.68,-42.91
9216.21,-44.16
9237.74,-44.63
9259.28,-43.92
9280.81,-43.30
9302.34,-42.83
9323.88,-42.83
9345.41,-42.36
9366.94,-42.28
9388.48,-43.92
9410.01,-43.30
9431.54,-43.06
9453.08,-43.69
9474.61,-43.53
9496.14,-43.61
9517.68,-44.00
9539.21,-43.30
9560.74,-42.52
9582.28,-43.53
9603.81,-44.31
9625.34,-43.53
9646.88,-43.22
9668.41,-43.45
9689.94,-42.67
9711.47,-43.61
9733.01,-43.53
9754.54,-44.31
9776.07,-44.39
9797.61,-43.14
9819.14,-42.36
9840.67,-42.98
9862.21,-42.67
9883.74,-42.75
9905.27,-43.37
9926.81,-42.52
9948.34,-41.73
9969.87,-41.89
9991.41,-42.75
10012.94,-44.23
10034.47,-43.22
10056.01,-42.20
10077.54,-43.92
10099.07,-43.22
10120.61,-42.52
10142.14,-42.98
10163.67,-43.37
10185.21,-44.00
10206.74,-44.78
10228.27,-44.47
10249.80,-43.77
10271.34,-42.83
10292.87,-42.98
10314.40,-42.67
10335.94,-42.52
10357.47,-43.53
10379.00,-43.14
10400.54,-43.53
10422.07,-43.77
10443.60,-44.47
10465.14,-43.06
10486.67,-43.37
10508.20,-43.06
10529.74,-42.52
10551.27,-43.14
10572.80,-44.00
10594.34,-43.53
10615.87,-42.75
10637.40,-43.30
10658.94,-43.84
10680.47,-42.98
10702.00,-42.05
10723.54,-41.97
10745.07,-42.75
10766.60,-43.53
10788.13,-44.00
10809.67,-43.77
10831.20,-42.98
10852.73,-42.36
10874.27,-42.59
10895.80,-43.37
10917.33,-43.61
10938.87,-42.98
10960.40,-43.30
10981.93,-43.84
11003.47,-43.53
11025.00,-42.52
11046.53,-41.97
11068.07,-42.12
11089.60,-42.36
11111.13,-42.59
11132.67,-42.91
11154.20,-43.37
11175.73,-43.30
11197.27,-42.59
11218.80,-42.52
11240.33,-42.44
11261.87,-43.06
11283.40,-43.53
11304.93,-43.84
11326.46,-42.20
11348.00,-42.52
11369.53,-43.14
11391.06,-43.22
11412.60,-43.37
11434.13,-43.06
11455.66,-42.59
11477.20,-43.30
11498.73,-41.66
11520.26,-42.52
11541.80,-43.61
11563.33,-43.22
11584.86,-43.22
11606.40,-42.67
11627.93,-42.83
11649.46,-42.98
11671.00,-42.98
11692.53,-43.69
11714.06,-43.14
11735.60,-43.84
11757.13,-44.00
11778.66,-42.91
11800.20,-42.83
11821.73,-42.83
11843.26,-42.75
11864.79,-42.91
11886.33,-43.14
11907.86,-42.52
11929.39,-43.45
11950.93,-44.00
11972.46,-43.53
11993.99,-43.69
12015.53,-43.06
12037.06,-43.77
12058.59,-43.61
12080.13,-43.45
12101.66,-43.06
12123.19,-43.14
12144.73,-42.67
12166.26,-42.52
12187.79,-44.16
12209.33,-43.30
12230.86,-43.22
12252.39,-43.61
12273.93,-44.47
12295.46,-43.30
12316.99,-43.53
12338.53,-43.61
12360.06,-41.89
12381.59,-43.22
12403.13,-42.20
12424.66,-42.12
12446.19,-43.45
12467.72,-43.77
12489.26,-43.06
12510.79,-43.53
12532.32,-43.77
12553.86,-43.69
12575.39,-43.14
12596.92,-43.53
12618.46,-43.37
12639.99,-43.30
12661.52,-42.28
12683.06,-42.05
12704.59,-42.52
12726.12,-42.52
12747.66,-43.14
12769.19,-42.98
12790.72,-43.14
12812.26,-43.77
12833.79,-42.83
12855.32,-43.06
12876.86,-43.45
12898.39,-44.08
12919.92,-43.61
12941.46,-43.69
12962.99,-43.69
12984.52,-42.52
13006.05,-42.05
13027.59,-43.14
13049.12,-43.37
13070.65,-42.67
13092.19,-43.30
13113.72,-42.75
13135.25,-42.52
13156.79,-42.98
13178.32,-43.06
13199.85,-43.37
13221.39,-44.16
13242.92,-44.00
13264.45,-43.61
13285.99,-42.83
13307.52,-43.84
13329.05,-43.69
13350.59,-43.14
13372.12,-43.22
13393.65,-43.14
13415.19,-43.45
13436.72,-43.14
13458.25,-43.14
13479.79,-42.67
13501.32,-43.06
13522.85,-43.14
13544.38,-42.83
13565.92,-42.59
13587.45,-42.44
13608.98,-42.28
13630.52,-43.30
13652.05,-42.98
13673.58,-42.91
13695.12,-43.92
13716.65,-43.22
13738.18,-43.14
13759.72,-43.61
13781.25,-43.22
13802.78,-43.53
13824.32,-43.53
13845.85,-41.89
13867.38,-42.59
13888.92,-43.37
13910.45,-43.69
13931.98,-43.37
13953.52,-42.52
13975.05,-42.36
13996.58,-43.45
14018.12,-43.22
14039.65,-43.61
14061.18,-44.55
14082.71,-43.61
14104.25,-42.98
14125.78,-44.00
14147.31,-42.59
14168.85,-41.50
14190.38,-41.58
14211.91,-42.91
14233.45,-43.84
14254.98,-44.08
14276.51,-44.39
14298.05,-42.75
14319.58,-42.91
14341.11,-42.67
14362.65,-43.30
14384.18,-43.92
14405.71,-43.06
14427.25,-43.22
14448.78,-43.84
14470.31,-44.70
14491.85,-43.53
14513.38,-42.91
14534.91,-43.77
14556.45,-42.52
14577.98,-42.59
14599.51,-43.61
14621.04,-43.45
14642.58,-42.91
14664.11,-43.45
14685.64,-43.14
14707.18,-43.84
14728.71,-43.37
14750.24,-42.83
14771.78,-43.77
14793.31,-44.31
14814.84,-44.47
14836.38,-43.06
14857.91,-42.91
14879.44,-42.98
14900.98,-42.44
14922.51,-42.36
14944.04,-42.12
14965.58,-42.36
14987.11,-42.44
15008.64,-43.22
15030.18,-43.69
15051.71,-43.22
15073.24,-42.91
15094.78,-42.83
15116.31,-42.83
15137.84,-42.44
15159.38,-42.91
15180.91,-42.67
15202.44,-42.98
15223.97,-43.37
15245.51,-43.53
15267.04,-43.37
15288.57,-43.84
15310.11,-44.16
15331.64,-43.84
15353.17,-43.61
15374.71,-43.37
15396.24,-43.37
15417.77,-43.22
15439.31,-42.75
15460.84,-42.83
15482.37,-43.30
15503.91,-42.44
15525.44,-42.36
15546.97,-43.06
15568.51,-43.45
15590.04,-43.45
15611.57,-42.12
15633.11,-42.36
15654.64,-43.37
15676.17,-42.98
15697.71,-42.83
15719.24,-43.14
15740.77,-42.44
15762.30,-41.97
15783.84,-41.81
15805.37,-42.59
15826.90,-42.36
15848.44,-42.59
15869.97,-43.22
15891.50,-43.92
15913.04,-43.30
15934.57,-43.14
15956.10,-42.98
15977.64,-42.28
15999.17,-42.20
16020.70,-42.91
16042.24,-42.59
16063.77,-43.14
16085.30,-43.06
16106.84,-43.14
16128.37,-44.16
16149.90,-43.53
16171.44,-43.14
16192.97,-44.39
16214.50,-44.08
16236.04,-42.67
16257.57,-42.91
16279.10,-42.91
16300.63,-43.45
16322.17,-43.06
16343.70,-43.53
16365.23,-43.06
16386.77,-42.83
16408.30,-42.75
16429.83,-43.84
16451.37,-42.83
16472.90,-42.44
16494.43,-43.14
16515.97,-42.59
16537.50,-42.05
16559.03,-42.59
16580.57,-43.14
16602.10,-42.52
16623.63,-42.44
16645.17,-42.44
16666.70,-43.61
16688.23,-42.83
16709.77,-42.44
16731.30,-43.22
16752.83,-42.67
16774.37,-43.22
16795.90,-43.61
16817.43,-44.08
16838.96,-43.69
16860.50,-43.22
16882.03,-43.84
16903.56,-43.37
16925.10,-43.61
16946.63,-42.52
16968.16,-42.12
16989.70,-42.83
17011.23,-44.08
17032.76,-43.77
17054.30,-43.30
17075.83,-43.45
17097.36,-43.61
17118.90,-43.22
17140.43,-42.91
17161.96,-41.81
17183.50,-42.83
17205.03,-43.53
17226.56,-42.98
17248.10,-42.44
17269.63,-43.53
17291.16,-43.30
17312.70,-42.75
17334.23,-43.30
17355.76,-42.67
17377.29,-42.75
17398.83,-43.45
17420.36,-44.16
17441.89,-43.45
17463.43,-42.44
17484.96,-42.83
17506.49,-43.37
17528.03,-43.53
17549.56,-43.84
17571.09,-43.61
17592.63,-43.45
17614.16,-42.44
17635.69,-42.75
17657.23,-43.77
17678.76,-43.92
17700.29,-44.31
17721.83,-43.45
17743.36,-43.37
17764.89,-42.52
17786.43,-43.92
17807.96,-44.70
17829.49,-44.08
17851.03,-44.78
17872.56,-43.77
17894.09,-42.52
17915.63,-43.69
17937.16,-43.61
17958.69,-43.06
17980.22,-42.67
18001.76,-42.75
18023.29,-42.52
18044.82,-42.59
18066.36,-42.20
18087.89,-43.14
18109.42,-43.30
18130.96,-43.84
18152.49,-43.45
18174.02,-42.59
18195.56,-42.36
18217.09,-42.59
18238.62,-43.22
18260.16,-43.22
18281.69,-42.91
18303.22,-43.45
18324.76,-43.37
18346.29,-43.45
18367.82,-42.05
18389.36,-43.77
18410.89,-44.31
18432.42,-43.45
18453.96,-42.91
18475.49,-42.12
18497.02,-42.59
18518.55,-43.69
18540.09,-42.83
18561.62,-43.30
18583.15,-42.28
18604.69,-42.28
18626.22,-41.66
18647.75,-42.75
18669.29,-43.92
18690.82,-44.08
18712.35,-44.23
18733.89,-43.14
18755.42,-41.26
18776.95,-42.28
18798.49,-42.98
18820.02,-42.98
18841.55,-42.44
18863.09,-43.14
18884.62,-44.16
18906.15,-42.98
18927.69,-43.61
18949.22,-43.77
18970.75,-43.22
18992.29,-43.69
19013.82,-42.52
19035.35,-43.37
19056.88,-43.37
19078.42,-42.28
19099.95,-43.69
19121.48,-44.08
19143.02,-44.31
19164.55,-44.08
19186.08,-43.53
19207.62,-42.67
19229.15,-43.37
19250.68,-43.61
19272.22,-43.77
19293.75,-45.09
19315.28,-44.78
19336.82,-43.53
19358.35,-43.06
19379.88,-43.92
19401.42,-42.91
19422.95,-43.06
19444.48,-42.75
19466.02,-43.22
19487.55,-42.91
19509.08,-42.83
19530.62,-43.77
19552.15,-43.77
19573.68,-44.39
19595.21,-45.33
19616.75,-44.94
19638.28,-43.37
19659.81,-43.45
19681.35,-44.00
19702.88,-43.92
19724.41,-43.37
19745.95,-44.31
19767.48,-45.09
19789.01,-44.08
19810.55,-45.09
19832.08,-44.47
19853.61,-44.23
19875.15,-44.00
19896.68,-44.39
19918.21,-43.30
19939.75,-44.00
19961.28,-45.09
19982.81,-45.25
20004.35,-44.55
20025.88,-44.55
20047.41,-44.47
20068.95,-45.09
20090.48,-45.88
20112.01,-45.72
20133.54,-45.25
20155.08,-45.88
20176.61,-45.25
20198.14,-44.94
20219.68,-46.81
20241.21,-46.27
20262.74,-45.17
20284.28,-45.80
20305.81,-45.95
20327.34,-46.81
20348.88,-47.05
20370.41,-46.50
20391.94,-46.89
20413.48,-46.66
20435.01,-47.05
20456.54,-48.30
20478.08,-46.74
20499.61,-46.50
20521.14,-47.20
20542.68,-47.52
20564.21,-46.97
20585.74,-46.34
20607.28,-47.59
20628.81,-48.14
20650.34,-47.44
20671.88,-47.36
20693.41,-48.30
20714.94,-48.77
20736.47,-48.61
20758.01,-49.00
20779.54,-47.52
20801.07,-47.44
20822.61,-47.75
20844.14,-48.69
20865.67,-49.24
20887.21,-48.92
20908.74,-48.38
20930.27,-49.00
20951.81,-49.47
20973.34,-49.39
20994.87,-49.39
21016.41,-49.63
21037.94,-49.94
21059.47,-50.88
21081.01,-50.64
21102.54,-50.56
21124.07,-51.89
21145.61,-51.74
21167.14,-50.02
21188.67,-50.10
21210.21,-50.88
21231.74,-51.19
21253.27,-51.50
21274.80,-51.81
21296.34,-51.50
21317.87,-52.21
21339.40,-52.75
21360.94,-50.95
21382.47,-51.11
21404.00,-52.52
21425.54,-52.60
21447.07,-52.21
21468.60,-52.52
21490.14,-52.67
21511.67,-52.67
21533.20,-52.60
21554.74,-52.91
21576.27,-53.61
21597.80,-54.32
21619.34,-54.00
21640.87,-54.08
21662.40,-54.94
21683.94,-54.78
21705.47,-54.24
21727.00,-54.94
21748.54,-55.33
21770.07,-55.96
21791.60,-57.13
21813.13,-56.27
21834.67,-56.27
21856.20,-56.66
21877.73,-57.83
21899.27,-58.22
21920.80,-58.77
21942.33,-58.77
21963.87,-59.24
21985.40,-59.94
22006.93,-60.10
22028.47,-61.19
22050.00,-62.75
